x,B,f,A0,Atheta,A0`, energy
0.010000,-100.000000,0.000000,-3.701972,-0.005000,0.000000,0.500000
0.011355,-100.000000,0.000000,-3.701972,-0.006447,0.000000,0.500000
0.012710,-100.000000,0.000000,-3.701972,-0.008077,0.000000,0.500000
0.015419,-100.000000,0.000001,-3.701972,-0.011888,0.000000,0.500000
0.020839,-100.001589,0.000004,-3.701972,-0.021713,0.000001,0.500001
0.026258,-100.002019,0.000011,-3.701972,-0.034475,0.000004,0.500009
0.032355,-100.000230,0.000032,-3.701972,-0.052343,0.000023,0.500049
0.038452,-100.000090,0.000076,-3.701971,-0.073927,0.000096,0.500189
0.044549,-100.000020,0.000156,-3.701970,-0.099229,0.000328,0.500594
0.050645,-100.000033,0.000293,-3.701967,-0.128248,0.000966,0.501601
0.056742,-100.000082,0.000511,-3.701959,-0.160984,0.002514,0.503821
0.062839,-100.000213,0.000838,-3.701937,-0.197437,0.005919,0.508269
0.068936,-100.000509,0.001309,-3.701886,-0.237608,0.012825,0.516517
0.075033,-100.001127,0.001964,-3.701780,-0.281495,0.025896,0.530842
0.081129,-100.002335,0.002845,-3.701571,-0.329100,0.049214,0.554366
0.087226,-100.004571,0.004000,-3.701180,-0.380423,0.088718,0.591165
0.093323,-100.008506,0.005480,-3.700489,-0.435465,0.152679,0.646313
0.099420,-100.015140,0.007337,-3.699319,-0.494228,0.252137,0.725862
0.105517,-100.025895,0.009626,-3.697414,-0.556712,0.401278,0.836715
0.111613,-100.042723,0.012401,-3.694425,-0.622924,0.617680,0.986408
0.117710,-100.068217,0.015715,-3.689883,-0.692868,0.922364,1.182772
0.123807,-100.105695,0.019621,-3.683179,-0.766554,1.339605,1.433511
0.129904,-100.159260,0.024166,-3.673548,-0.843994,1.896447,1.745682
0.136001,-100.233793,0.029395,-3.660054,-0.925208,2.621894,2.125136
0.142097,-100.334855,0.035345,-3.641578,-1.010219,3.545764,2.575920
0.148194,-100.468461,0.042051,-3.616818,-1.099060,4.697211,3.099712
0.154291,-100.640681,0.049536,-3.584302,-1.191772,6.102961,3.695305
0.160388,-100.857041,0.057819,-3.542401,-1.288408,7.785313,4.358197
0.166485,-101.121697,0.066908,-3.489371,-1.389027,9.760007,5.080327
0.172581,-101.436364,0.076803,-3.423392,-1.493699,12.034041,5.849978
0.178678,-101.799034,0.087496,-3.342633,-1.602499,14.603601,6.651895
0.184775,-102.202526,0.098967,-3.245321,-1.715504,17.452214,7.467630
0.190872,-102.632973,0.111190,-3.129827,-1.832783,20.549292,8.276118
0.196969,-103.068386,0.124130,-2.994751,-1.954387,23.849222,9.054498
0.203065,-103.477476,0.137743,-2.839019,-2.080341,27.291139,9.779148
0.209162,-103.818933,0.151979,-2.661974,-2.210619,30.799539,10.426917
0.215259,-104.041392,0.166780,-2.463462,-2.345133,34.285815,10.976474
0.221356,-104.084254,0.182083,-2.243907,-2.483708,37.650791,11.409712
0.227453,-103.879505,0.197823,-2.004363,-2.626064,40.788254,11.713072
0.233549,-103.354578,0.213930,-1.746551,-2.771799,43.589386,11.878681
0.239646,-102.436185,0.230331,-1.472852,-2.920370,45.947940,11.905147
0.245743,-101.054911,0.246956,-1.186280,-3.071090,47.765859,11.797882
0.251840,-99.150264,0.263732,-0.890414,-3.223120,48.958989,11.568874
0.257937,-96.675727,0.280589,-0.589294,-3.375485,49.462443,11.235856
0.264033,-93.603347,0.297460,-0.287289,-3.527083,49.235145,10.820929
0.270130,-89.927358,0.314282,0.011060,-3.676723,48.263128,10.348746
0.276227,-85.666411,0.330996,0.301213,-3.823153,46.561220,9.844473
0.282324,-80.864119,0.347546,0.578809,-3.965108,44.172889,9.331753
0.288421,-75.587776,0.363884,0.839839,-4.101358,41.168194,8.830929
0.294517,-69.925316,0.379968,1.080798,-4.230755,37.639979,8.357744
0.300614,-63.980770,0.395759,1.298806,-4.352280,33.698603,7.922626
0.306711,-56.968860,0.411226,1.491705,-4.465080,28.732048,7.530641
0.314840,-49.686359,0.431302,1.707544,-4.600809,23.586041,7.074887
0.322969,-41.417023,0.450712,1.875170,-4.718945,17.484784,6.686120
0.331776,-33.522154,0.470953,2.003659,-4.826811,11.673396,6.321156
0.340582,-26.691139,0.490357,2.080773,-4.914336,6.746628,5.991761
0.347356,-20.911115,0.504712,2.108776,-4.968650,2.381596,5.749663
0.354131,-16.527840,0.518575,2.113040,-5.012581,-0.727371,5.509877
0.360227,-12.808685,0.530637,2.099414,-5.044070,-3.375755,5.292644
0.366324,-9.730594,0.542314,2.071877,-5.068760,-5.454121,5.072689
0.372421,-7.113659,0.553617,2.032909,-5.087470,-7.136702,4.850036
0.378518,-4.928321,0.564556,1.984855,-5.101016,-8.449678,4.625678
0.384615,-3.137727,0.575143,1.929877,-5.110183,-9.426623,4.401219
0.390711,-1.732192,0.585390,1.869911,-5.115710,-10.024961,4.178557
0.394776,-0.901368,0.592039,1.828010,-5.117710,-10.375710,4.032078
0.396808,-0.538374,0.595310,1.806652,-5.118275,-10.559263,3.959634
0.398840,-0.278431,0.598546,1.785091,-5.118579,-10.702563,3.887806
0.404937,0.522363,0.608049,1.719650,-5.118125,-10.757680,3.676605
0.411034,1.092049,0.617255,1.653917,-5.116010,-10.731636,3.472892
0.417131,1.487947,0.626175,1.588793,-5.112668,-10.573982,3.277747
0.423228,1.743967,0.634822,1.524982,-5.108463,-10.315747,3.091915
0.429324,1.889863,0.643207,1.463007,-5.103692,-9.983905,2.915828
0.435421,1.951165,0.651340,1.403242,-5.098596,-9.601325,2.749649
0.441518,1.949320,0.659233,1.345932,-5.093361,-9.186923,2.593319
0.447615,1.901975,0.666896,1.291220,-5.088130,-8.755953,2.446610
0.453712,1.823346,0.674337,1.239166,-5.083009,-8.320387,2.309168
0.459808,1.724644,0.681567,1.189765,-5.078072,-7.889335,2.180558
0.465905,1.614504,0.688593,1.142966,-5.073368,-7.469482,2.060289
0.472002,1.499407,0.695423,1.098685,-5.068927,-7.065502,1.947849
0.478099,1.384068,0.702066,1.056812,-5.064765,-6.680446,1.842720
0.484196,1.271790,0.708528,1.017226,-5.060885,-6.316087,1.744392
0.490292,1.164768,0.714816,0.979797,-5.057281,-5.973214,1.652374
0.496389,1.064346,0.720937,0.944391,-5.053945,-5.651889,1.566204
0.502486,0.971235,0.726896,0.910880,-5.050862,-5.351646,1.485444
0.508583,0.885682,0.732701,0.879135,-5.048016,-5.071663,1.409691
0.514680,0.807615,0.738355,0.849038,-5.045390,-4.810889,1.338570
0.520776,0.736743,0.743864,0.820473,-5.042967,-4.568144,1.271738
0.526873,0.672641,0.749233,0.793336,-5.040731,-4.342188,1.208879
0.532970,0.614809,0.754468,0.767526,-5.038664,-4.131782,1.149704
0.539067,0.562716,0.759571,0.742954,-5.036753,-3.935716,1.093948
0.545164,0.515829,0.764549,0.719536,-5.034982,-3.752841,1.041370
0.551260,0.473632,0.769404,0.697194,-5.033339,-3.582074,0.991750
0.557357,0.435639,0.774140,0.675857,-5.031814,-3.422414,0.944884
0.563454,0.401403,0.778762,0.655462,-5.030393,-3.272939,0.900588
0.569551,0.370514,0.783273,0.635949,-5.029070,-3.132806,0.858691
0.575648,0.342606,0.787676,0.617262,-5.027834,-3.001249,0.819038
0.581744,0.317350,0.791975,0.599352,-5.026678,-2.877573,0.781484
0.587841,0.294452,0.796172,0.582174,-5.025595,-2.761147,0.745897
0.593938,0.273655,0.800271,0.565684,-5.024580,-2.651402,0.712155
0.600035,0.254730,0.804275,0.549844,-5.023625,-2.547822,0.680145
0.606132,0.237475,0.808186,0.534617,-5.022727,-2.449942,0.649762
0.612228,0.221714,0.812007,0.519970,-5.021881,-2.357338,0.620910
0.618325,0.207291,0.815741,0.505873,-5.021083,-2.269628,0.593499
0.624422,0.194068,0.819390,0.492295,-5.020328,-2.186463,0.567445
0.630519,0.181923,0.822956,0.479212,-5.019615,-2.107528,0.542670
0.636616,0.170750,0.826442,0.466597,-5.018939,-2.032534,0.519101
0.642712,0.160455,0.829850,0.454428,-5.018299,-1.961218,0.496672
0.648809,0.150952,0.833181,0.442683,-5.017691,-1.893339,0.475319
0.654906,0.142169,0.836439,0.431341,-5.017113,-1.828675,0.454983
0.661003,0.134038,0.839625,0.420385,-5.016564,-1.767026,0.435609
0.667100,0.126501,0.842741,0.409795,-5.016041,-1.708203,0.417145
0.673196,0.119505,0.845789,0.399555,-5.015543,-1.652035,0.399543
0.679293,0.113003,0.848771,0.389651,-5.015068,-1.598365,0.382757
0.685390,0.106952,0.851687,0.380066,-5.014614,-1.547045,0.366745
0.691487,0.101314,0.854541,0.370787,-5.014181,-1.497940,0.351466
0.697584,0.096056,0.857334,0.361800,-5.013767,-1.450924,0.336882
0.703680,0.091145,0.860066,0.353095,-5.013371,-1.405881,0.322959
0.709777,0.086555,0.862741,0.344658,-5.012992,-1.362701,0.309663
0.715874,0.082259,0.865358,0.336478,-5.012628,-1.321285,0.296962
0.721971,0.078235,0.867920,0.328546,-5.012280,-1.281538,0.284827
0.728068,0.074462,0.870428,0.320852,-5.011946,-1.243372,0.273229
0.734164,0.070921,0.872884,0.313385,-5.011625,-1.206705,0.262143
0.740261,0.067595,0.875288,0.306138,-5.011317,-1.171461,0.251543
0.746358,0.064468,0.877641,0.299101,-5.011021,-1.137568,0.241406
0.752455,0.061526,0.879946,0.292267,-5.010736,-1.104958,0.231710
0.758552,0.058755,0.882203,0.285627,-5.010462,-1.073569,0.222432
0.764648,0.056143,0.884414,0.279176,-5.010198,-1.043341,0.213555
0.770745,0.053679,0.886579,0.272905,-5.009943,-1.014219,0.205058
0.776842,0.051353,0.888699,0.266809,-5.009698,-0.986151,0.196923
0.782939,0.049156,0.890776,0.260881,-5.009462,-0.959087,0.189135
0.789036,0.047078,0.892811,0.255114,-5.009234,-0.932982,0.181676
0.795132,0.045113,0.894804,0.249504,-5.009014,-0.907790,0.174532
0.801229,0.043252,0.896757,0.244045,-5.008801,-0.883472,0.167687
0.807326,0.041490,0.898671,0.238731,-5.008596,-0.859988,0.161129
0.813423,0.039819,0.900545,0.233559,-5.008397,-0.837302,0.154845
0.819520,0.038234,0.902382,0.228522,-5.008205,-0.815379,0.148821
0.825616,0.036729,0.904183,0.223616,-5.008019,-0.794186,0.143047
0.831713,0.035300,0.905947,0.218838,-5.007839,-0.773691,0.137511
0.837810,0.033942,0.907676,0.214182,-5.007665,-0.753866,0.132202
0.843907,0.032651,0.909371,0.209645,-5.007496,-0.734683,0.127111
0.850004,0.031423,0.911032,0.205224,-5.007333,-0.716115,0.122227
0.856100,0.030253,0.912660,0.200913,-5.007174,-0.698138,0.117542
0.862197,0.029139,0.914256,0.196711,-5.007021,-0.680726,0.113047
0.868294,0.028077,0.915821,0.192613,-5.006872,-0.663858,0.108734
0.874391,0.027065,0.917355,0.188616,-5.006727,-0.647512,0.104595
0.880488,0.026099,0.918858,0.184717,-5.006587,-0.631667,0.100621
0.886584,0.025177,0.920333,0.180914,-5.006450,-0.616305,0.096807
0.892681,0.024297,0.921778,0.177202,-5.006318,-0.601407,0.093146
0.898778,0.023456,0.923196,0.173580,-5.006189,-0.586954,0.089630
0.904875,0.022652,0.924586,0.170045,-5.006064,-0.572930,0.086254
0.910972,0.021883,0.925949,0.166594,-5.005942,-0.559320,0.083011
0.917068,0.021148,0.927285,0.163225,-5.005824,-0.546107,0.079897
0.923165,0.020443,0.928596,0.159935,-5.005709,-0.533277,0.076905
0.929262,0.019769,0.929882,0.156723,-5.005597,-0.520817,0.074031
0.935359,0.019123,0.931143,0.153585,-5.005487,-0.508713,0.071269
0.941456,0.018504,0.932379,0.150520,-5.005381,-0.496952,0.068615
0.947552,0.017911,0.933592,0.147525,-5.005278,-0.485522,0.066065
0.953649,0.017341,0.934782,0.144599,-5.005177,-0.474411,0.063614
0.959746,0.016795,0.935949,0.141740,-5.005079,-0.463609,0.061258
0.965843,0.016270,0.937094,0.138946,-5.004983,-0.453104,0.058994
0.971940,0.015767,0.938217,0.136215,-5.004890,-0.442887,0.056816
0.978036,0.015283,0.939319,0.133546,-5.004799,-0.432947,0.054723
0.984133,0.014818,0.940400,0.130936,-5.004710,-0.423276,0.052710
0.990230,0.014370,0.941461,0.128385,-5.004623,-0.413865,0.050774
0.996327,0.013940,0.942501,0.125890,-5.004539,-0.404704,0.048913
1.002424,0.013527,0.943522,0.123450,-5.004456,-0.395785,0.047122
1.008520,0.013128,0.944524,0.121064,-5.004376,-0.387101,0.045400
1.014617,0.012745,0.945507,0.118730,-5.004297,-0.378645,0.043743
1.020714,0.012376,0.946471,0.116447,-5.004220,-0.370407,0.042150
1.026811,0.012020,0.947418,0.114213,-5.004145,-0.362383,0.040616
1.032908,0.011677,0.948347,0.112028,-5.004072,-0.354565,0.039141
1.039004,0.011347,0.949258,0.109890,-5.004000,-0.346946,0.037721
1.045101,0.011028,0.950153,0.107797,-5.003930,-0.339520,0.036354
1.051198,0.010720,0.951031,0.105750,-5.003862,-0.332282,0.035039
1.057295,0.010424,0.951892,0.103746,-5.003795,-0.325225,0.033774
1.063392,0.010137,0.952738,0.101784,-5.003729,-0.318344,0.032555
1.069488,0.009861,0.953568,0.099864,-5.003665,-0.311634,0.031383
1.075585,0.009594,0.954383,0.097984,-5.003602,-0.305089,0.030254
1.081682,0.009336,0.955182,0.096144,-5.003541,-0.298705,0.029167
1.087779,0.009087,0.955967,0.094342,-5.003481,-0.292477,0.028120
1.093876,0.008846,0.956738,0.092577,-5.003422,-0.286400,0.027113
1.099972,0.008613,0.957494,0.090850,-5.003365,-0.280470,0.026142
1.106069,0.008388,0.958236,0.089157,-5.003308,-0.274682,0.025208
1.112166,0.008170,0.958965,0.087500,-5.003253,-0.269032,0.024308
1.118263,0.007959,0.959681,0.085877,-5.003199,-0.263517,0.023441
1.124360,0.007755,0.960383,0.084287,-5.003146,-0.258132,0.022606
1.130456,0.007557,0.961073,0.082729,-5.003095,-0.252875,0.021802
1.136553,0.007366,0.961750,0.081203,-5.003044,-0.247740,0.021028
1.142650,0.007180,0.962414,0.079709,-5.002994,-0.242725,0.020281
1.148747,0.007001,0.963067,0.078244,-5.002945,-0.237827,0.019562
1.154844,0.006827,0.963708,0.076809,-5.002898,-0.233042,0.018870
1.160940,0.006658,0.964337,0.075402,-5.002851,-0.228367,0.018202
1.167037,0.006495,0.964955,0.074024,-5.002805,-0.223800,0.017559
1.173134,0.006336,0.965561,0.072673,-5.002760,-0.219336,0.016940
1.179231,0.006182,0.966157,0.071349,-5.002716,-0.214974,0.016342
1.185328,0.006033,0.966742,0.070052,-5.002672,-0.210710,0.015767
1.191424,0.005889,0.967316,0.068780,-5.002630,-0.206543,0.015212
1.197521,0.005748,0.967880,0.067533,-5.002588,-0.202469,0.014678
1.203618,0.005612,0.968434,0.066311,-5.002547,-0.198486,0.014162
1.209715,0.005479,0.968978,0.065113,-5.002507,-0.194591,0.013666
1.215812,0.005351,0.969512,0.063939,-5.002468,-0.190783,0.013187
1.221908,0.005226,0.970037,0.062787,-5.002429,-0.187059,0.012725
1.228005,0.005104,0.970552,0.061658,-5.002391,-0.183417,0.012280
1.234102,0.004987,0.971058,0.060550,-5.002354,-0.179854,0.011851
1.240199,0.004872,0.971555,0.059465,-5.002317,-0.176369,0.011438
1.246296,0.004761,0.972043,0.058400,-5.002281,-0.172960,0.011039
1.252392,0.004652,0.972522,0.057356,-5.002246,-0.169625,0.010655
1.258489,0.004547,0.972993,0.056331,-5.002211,-0.166362,0.010284
1.264586,0.004445,0.973455,0.055327,-5.002177,-0.163168,0.009926
1.270683,0.004345,0.973909,0.054342,-5.002144,-0.160044,0.009581
1.276780,0.004248,0.974356,0.053375,-5.002111,-0.156985,0.009249
1.282876,0.004154,0.974794,0.052428,-5.002079,-0.153992,0.008928
1.288973,0.004062,0.975224,0.051498,-5.002047,-0.151063,0.008619
1.295070,0.003972,0.975647,0.050586,-5.002016,-0.148195,0.008320
1.301167,0.003885,0.976062,0.049691,-5.001986,-0.145388,0.008033
1.307264,0.003801,0.976470,0.048813,-5.001955,-0.142639,0.007755
1.313360,0.003718,0.976871,0.047951,-5.001926,-0.139948,0.007487
1.319457,0.003638,0.977265,0.047106,-5.001897,-0.137313,0.007229
1.325554,0.003560,0.977652,0.046277,-5.001868,-0.134733,0.006980
1.331651,0.003483,0.978032,0.045463,-5.001840,-0.132206,0.006739
1.337748,0.003409,0.978405,0.044665,-5.001813,-0.129732,0.006507
1.343844,0.003337,0.978772,0.043882,-5.001786,-0.127308,0.006284
1.349941,0.003266,0.979132,0.043113,-5.001759,-0.124935,0.006068
1.356038,0.003197,0.979486,0.042358,-5.001733,-0.122610,0.005859
1.362135,0.003130,0.979834,0.041618,-5.001707,-0.120332,0.005658
1.368232,0.003064,0.980176,0.040891,-5.001682,-0.118101,0.005464
1.374328,0.003001,0.980511,0.040178,-5.001657,-0.115914,0.005277
1.380425,0.002938,0.980841,0.039477,-5.001632,-0.113773,0.005096
1.386522,0.002878,0.981165,0.038790,-5.001608,-0.111674,0.004922
1.392619,0.002818,0.981484,0.038116,-5.001585,-0.109618,0.004754
1.398716,0.002760,0.981797,0.037454,-5.001561,-0.107603,0.004591
1.404812,0.002704,0.982104,0.036804,-5.001538,-0.105628,0.004435
1.410909,0.002649,0.982406,0.036166,-5.001516,-0.103693,0.004283
1.417006,0.002595,0.982703,0.035539,-5.001494,-0.101796,0.004137
1.423103,0.002543,0.982995,0.034924,-5.001472,-0.099937,0.003997
1.429200,0.002491,0.983281,0.034321,-5.001450,-0.098114,0.003861
1.435296,0.002441,0.983563,0.033728,-5.001429,-0.096328,0.003729
1.441393,0.002392,0.983839,0.033146,-5.001408,-0.094577,0.003602
1.447490,0.002345,0.984111,0.032575,-5.001388,-0.092861,0.003480
1.453587,0.002298,0.984379,0.032014,-5.001368,-0.091178,0.003362
1.459684,0.002252,0.984641,0.031463,-5.001348,-0.089528,0.003248
1.465780,0.002208,0.984899,0.030922,-5.001328,-0.087910,0.003138
1.471877,0.002164,0.985153,0.030391,-5.001309,-0.086324,0.003031
1.477974,0.002122,0.985402,0.029870,-5.001290,-0.084768,0.002929
1.484071,0.002080,0.985647,0.029357,-5.001272,-0.083243,0.002830
1.490168,0.002040,0.985888,0.028854,-5.001253,-0.081747,0.002734
1.496264,0.002000,0.986124,0.028361,-5.001235,-0.080281,0.002642
1.502361,0.001961,0.986356,0.027876,-5.001217,-0.078842,0.002552
1.508458,0.001923,0.986585,0.027399,-5.001200,-0.077431,0.002466
1.514555,0.001886,0.986809,0.026931,-5.001183,-0.076047,0.002383
1.520652,0.001850,0.987030,0.026472,-5.001166,-0.074690,0.002303
1.526748,0.001814,0.987247,0.026021,-5.001149,-0.073359,0.002225
1.532845,0.001779,0.987460,0.025577,-5.001133,-0.072053,0.002150
1.538942,0.001745,0.987670,0.025142,-5.001116,-0.070771,0.002078
1.545039,0.001712,0.987875,0.024714,-5.001100,-0.069515,0.002008
1.551136,0.001680,0.988078,0.024294,-5.001085,-0.068282,0.001940
1.557232,0.001648,0.988277,0.023882,-5.001069,-0.067072,0.001875
1.563329,0.001617,0.988472,0.023477,-5.001054,-0.065885,0.001812
1.569426,0.001586,0.988664,0.023079,-5.001039,-0.064721,0.001751
1.575523,0.001556,0.988853,0.022687,-5.001024,-0.063578,0.001693
1.581620,0.001527,0.989039,0.022303,-5.001010,-0.062457,0.001636
1.587716,0.001499,0.989221,0.021926,-5.000995,-0.061357,0.001581
1.593813,0.001471,0.989401,0.021555,-5.000981,-0.060277,0.001528
1.599910,0.001443,0.989577,0.021191,-5.000967,-0.059218,0.001477
1.606007,0.001416,0.989750,0.020833,-5.000954,-0.058178,0.001428
1.612104,0.001390,0.989921,0.020481,-5.000940,-0.057158,0.001380
1.618200,0.001364,0.990088,0.020136,-5.000927,-0.056157,0.001334
1.624297,0.001339,0.990253,0.019797,-5.000914,-0.055174,0.001289
1.630394,0.001315,0.990415,0.019463,-5.000901,-0.054209,0.001246
1.636491,0.001290,0.990574,0.019136,-5.000888,-0.053263,0.001205
1.642588,0.001267,0.990730,0.018814,-5.000876,-0.052333,0.001164
1.648684,0.001244,0.990884,0.018498,-5.000863,-0.051421,0.001126
1.654781,0.001221,0.991035,0.018187,-5.000851,-0.050526,0.001088
1.660878,0.001199,0.991183,0.017881,-5.000839,-0.049647,0.001052
1.666975,0.001177,0.991329,0.017581,-5.000827,-0.048784,0.001017
1.673072,0.001155,0.991473,0.017287,-5.000816,-0.047937,0.000983
1.679168,0.001134,0.991614,0.016997,-5.000804,-0.047106,0.000950
1.685265,0.001114,0.991753,0.016712,-5.000793,-0.046290,0.000919
1.691362,0.001094,0.991889,0.016432,-5.000782,-0.045488,0.000888
1.697459,0.001074,0.992023,0.016158,-5.000771,-0.044701,0.000859
1.703556,0.001055,0.992155,0.015887,-5.000760,-0.043929,0.000830
1.709652,0.001036,0.992284,0.015622,-5.000750,-0.043170,0.000803
1.715749,0.001017,0.992412,0.015361,-5.000739,-0.042426,0.000776
1.721846,0.000999,0.992537,0.015105,-5.000729,-0.041694,0.000750
1.727943,0.001637,0.992660,0.014853,-5.000719,-0.041016,0.000725
1.733362,0.000961,0.992768,0.014632,-5.000710,-0.040349,0.000704
1.738782,0.002234,0.992874,0.014415,-5.000701,-0.039807,0.000683
1.742846,0.000928,0.992953,0.014255,-5.000694,-0.039274,0.000668
1.746911,0.000917,0.993030,0.014096,-5.000688,-0.038823,0.000653
1.750975,0.000906,0.993107,0.013939,-5.000681,-0.038378,0.000639
1.755040,0.000895,0.993183,0.013784,-5.000675,-0.037937,0.000625
1.759104,0.000885,0.993258,0.013631,-5.000669,-0.037502,0.000611
1.763169,0.000874,0.993332,0.013479,-5.000662,-0.037073,0.000597
1.767233,0.000864,0.993405,0.013329,-5.000656,-0.036648,0.000584
1.771298,0.000854,0.993478,0.013181,-5.000650,-0.036229,0.000571
1.775362,0.000844,0.993550,0.013035,-5.000644,-0.035814,0.000559
1.779427,0.000834,0.993621,0.012890,-5.000638,-0.035405,0.000546
1.783492,0.000824,0.993691,0.012747,-5.000632,-0.035000,0.000534
1.787556,0.000814,0.993760,0.012606,-5.000626,-0.034600,0.000522
1.791621,0.000804,0.993829,0.012466,-5.000620,-0.034205,0.000511
1.795685,0.000795,0.993897,0.012328,-5.000615,-0.033815,0.000499
1.799750,0.000786,0.993964,0.012191,-5.000609,-0.033429,0.000488
1.803814,0.000776,0.994030,0.012056,-5.000603,-0.033048,0.000478
1.807879,0.000767,0.994095,0.011922,-5.000598,-0.032672,0.000467
